                                                                09.04.2015 10:05
________________________________________________________________________________



Curve Name:
  PUL10 - minus baseline - 7deg per min, 7.20mg, 09.04.2015 10:05:16
  Performed 07.04.2015 16:05:32
Curve Values:
          Index              t             Ts          Value
                           [s]           [°C]           [mW]
              0              0        9.99992              0
              3              3        10.3418              0
              6              6        10.6743              0
              9              9        11.0163              0
             12             12        11.3634              0
             15             15        11.7126              0
             18             18        12.0626              0
             21             21        12.4127              0
             24             24        12.7627              0
             27             27        13.1128              0
             30             30        13.4629              0
             33             33        13.8129              0
             36             36        14.1629              0
             39             39        14.5129              0
             42             42        14.8629              0
             45             45        15.2129              0
             48             48        15.5629              0
             51             51        15.9128              0
             54             54        16.2628              0
             57             57        16.6127              0
             60             60        16.9627              0
             63             63        17.3127              0
             66             66        17.6626              0
             69             69        18.0125              0
             72             72        18.3624              0
             75             75        18.7123              0
             78             78        19.0623              0
             81             81        19.4122              0
             84             84        19.7622              0
             87             87        20.1121              0
             90             90        20.4621              0
             93             93         20.812              0
             96             96         21.162              0
             99             99         21.512              0
            102            102        21.8619              0
            105            105        22.2119              0
            108            108        22.5619              0
            111            111        22.9118              0
            114            114        23.2618              0
            117            117        23.6118              0
            120            120        23.9617              0
            123            123        24.3117              0
            126            126        24.6616              0
            129            129        25.0116              0
            132            132        25.3616              0
            135            135        25.7115              0
            138            138        26.0615              0
            141            141        26.4115              0
            144            144        26.7614              0
            147            147        27.1114              0
            150            150        27.4613              0
            153            153        27.8113              0
            156            156        28.1613              0
            159            159        28.5112              0
            162            162        28.8611              0
            165            165        29.2111              0
            168            168         29.561              0
            171            171        29.9109              0
            174            174        30.2609              0
            177            177        30.6109              0
            180            180        30.9609              0
            183            183        31.3108              0
            186            186        31.6607              0
            189            189        32.0106              0
            192            192        32.3605              0
            195            195        32.7105              0
            198            198        33.0605              0
            201            201        33.4104              0
            204            204        33.7604              0
            207            207        34.1104              0
            210            210        34.4604              0
            213            213        34.8103              0
            216            216        35.1603              0
            219            219        35.5103              0
            222            222        35.8603              0
            225            225        36.2102              0
            228            228        36.5602              0
            231            231        36.9101              0
            234            234          37.26              0
            237            237          37.61              0
            240            240        37.9599              0
            243            243        38.3099              0
            246            246        38.6598              0
            249            249        39.0098              0
            252            252        39.3597              0
            255            255        39.7097              0
            258            258        40.0596              0
            261            261        40.4096              0
            264            264        40.7595              0
            267            267        41.1095              0
            270            270        41.4594              0
            273            273        41.8094              0
            276            276        42.1593              0
            279            279        42.5093              0
            282            282        42.8592              0
            285            285        43.2091              0
            288            288        43.5591              0
            291            291        43.9091              0
            294            294         44.259              0
            297            297         44.609              0
            300            300        44.9589              0
            303            303        45.3089              0
            306            306        45.6588              0
            309            309        46.0088              0
            312            312        46.3587              0
            315            315        46.7087              0
            318            318        47.0586              0
            321            321        47.4086              0
            324            324        47.7585              0
            327            327        48.1085              0
            330            330        48.4585              0
            333            333        48.8084              0
            336            336        49.1584              0
            339            339        49.5083              0
            342            342        49.8583              0
            345            345        50.2083              0
            348            348        50.5582              0
            351            351        50.9082              0
            354            354        51.2581              0
            357            357        51.6081              0
            360            360         51.958              0
            363            363         52.308              0
            366            366         52.658              0
            369            369        53.0079              0
            372            372        53.3579              0
            375            375        53.7079              0
            378            378        54.0579              0
            381            381        54.4078              0
            384            384        54.7578              0
            387            387        55.1077              0
            390            390        55.4577              0
            393            393        55.8077              0
            396            396        56.1576              0
            399            399        56.5076              0
            402            402        56.8575              0
            405            405        57.2075              0
            408            408        57.5575              0
            411            411        57.9074              0
            414            414        58.2574              0
            417            417        58.6074              0
            420            420        58.9574              0
            423            423        59.3074              0
            426            426        59.6573              0
            429            429        60.0073              0
            432            432        60.3573              0
            435            435        60.7073              0
            438            438        61.0572              0
            441            441        61.4072              0
            444            444        61.7572              0
            447            447        62.1072              0
            450            450        62.4572              0
            453            453        62.8072              0
            456            456        63.1572              0
            459            459        63.5072              0
            462            462        63.8571              0
            465            465        64.2071              0
            468            468        64.5571              0
            471            471        64.9071              0
            474            474        65.2571              0
            477            477        65.6071              0
            480            480        65.9571              0
            483            483        66.3071              0
            486            486        66.6571              0
            489            489         67.007              0
            492            492         67.357              0
            495            495         67.707              0
            498            498         68.057              0
            501            501         68.407              0
            504            504        68.7571              0
            507            507        69.1071              0
            510            510        69.4571              0
            513            513        69.8071              0
            516            516        70.1571              0
            519            519        70.5071              0
            522            522        70.8571              0
            525            525        71.2071              0
            528            528        71.5571              0
            531            531        71.9071              0
            534            534        72.2571              0
            537            537        72.6072              0
            540            540        72.9572              0
            543            543        73.3072              0
            546            546        73.6572              0
            549            549        74.0073              0
            552            552        74.3573              0
            555            555        74.7073              0
            558            558        75.0573              0
            561            561        75.4074              0
            564            564        75.7574              0
            567            567        76.1074              0
            570            570        76.4575              0
            573            573        76.8075              0
            576            576        77.1576              0
            579            579        77.5076              0
            582            582        77.8577              0
            585            585        78.2077              0
            588            588        78.5578              0
            591            591        78.9079              0
            594            594        79.2579              0
            597            597        79.6079              0
            600            600         79.958  -1.53184e-005
            603            603        80.3081  -5.74589e-005
            606            606        80.6581    -0.00010711
            609            609        81.0082  -3.01003e-005
            612            612        81.3582    4.6134e-005
            615            615        81.7083    0.000203729
            618            618        82.0584    0.000133932
            621            621        82.4084   -0.000190794
            624            624        82.7585   -0.000490665
            627            627        83.1085   -0.000574827
            630            630        83.4586   -0.000554144
            633            633        83.8087   -0.000640273
            636            636        84.1588    -0.00063616
            639            639        84.5089   -0.000488639
            642            642        84.8589   -0.000540853
            645            645         85.209    -0.00088352
            648            648        85.5591    -0.00115389
            651            651        85.9091    -0.00128204
            654            654        86.2592    -0.00142211
            657            657        86.6093     -0.0013501
            660            660        86.9594    -0.00118476
            663            663        87.3095    -0.00144804
            666            666        87.6596    -0.00191975
            669            669        88.0097    -0.00245166
            672            672        88.3598    -0.00261426
            675            675        88.7099    -0.00289601
            678            678          89.06    -0.00304854
            681            681        89.4101    -0.00318789
            684            684        89.7602    -0.00319964
            687            687        90.1103    -0.00338095
            690            690        90.4604     -0.0033915
            693            693        90.8105    -0.00341195
            696            696        91.1606    -0.00352788
            699            699        91.5107    -0.00354266
            702            702        91.8608    -0.00369477
            705            705        92.2109    -0.00413924
            708            708        92.5611    -0.00436473
            711            711        92.9112    -0.00448364
            714            714        93.2613    -0.00436008
            717            717        93.6115    -0.00421864
            720            720        93.9616    -0.00421751
            723            723        94.3117    -0.00406283
            726            726        94.6619    -0.00388998
            729            729         95.012     -0.0033778
            732            732        95.3622    -0.00266117
            735            735        95.7124    -0.00209504
            738            738        96.0625    -0.00156891
            741            741        96.4127    -0.00106943
            744            744        96.7629   -0.000641823
            747            747         97.113    -0.00034076
            750            750        97.4632   -0.000131726
            753            753        97.8134    0.000249207
            756            756        98.1636     0.00107366
            759            759        98.5137     0.00187576
            762            762        98.8639     0.00257546
            765            765        99.2141     0.00322849
            768            768        99.5643      0.0041244
            771            771        99.9145     0.00510675
            774            774        100.265     0.00619328
            777            777        100.615     0.00731659
            780            780        100.965     0.00876009
            783            783        101.315     0.00995624
            786            786        101.666      0.0107715
            789            789        102.016      0.0118015
            792            792        102.366      0.0130498
            795            795        102.716      0.0144722
            798            798        103.067      0.0162029
            801            801        103.417       0.018313
            804            804        103.767      0.0202677
            807            807        104.117      0.0222055
            810            810        104.468      0.0243205
            813            813        104.818      0.0268077
            816            816        105.168       0.029262
            819            819        105.519      0.0317552
            822            822        105.869      0.0341365
            825            825        106.219      0.0365822
            828            828        106.569      0.0394527
            831            831         106.92      0.0427004
            834            834         107.27      0.0461405
            837            837         107.62      0.0493996
            840            840        107.971      0.0528458
            843            843        108.321      0.0563772
            846            846        108.672      0.0598733
            849            849        109.022      0.0635009
            852            852        109.372      0.0672982
            855            855        109.723      0.0718637
            858            858        110.073      0.0769584
            861            861        110.424      0.0821171
            864            864        110.774      0.0872445
            867            867        111.124      0.0923718
            870            870        111.475      0.0977044
            873            873        111.825       0.103426
            876            876        112.176       0.109524
            879            879        112.526       0.116014
            882            882        112.877       0.122328
            885            885        113.227       0.129057
            888            888        113.578        0.13617
            891            891        113.929       0.143876
            894            894        114.279       0.152362
            897            897         114.63       0.160666
            900            900         114.98       0.168848
            903            903        115.331       0.177443
            906            906        115.682       0.185536
            909            909        116.032       0.193422
            912            912        116.383       0.201947
            915            915        116.733       0.212229
            918            918        117.084       0.223514
            921            921        117.435        0.23518
            924            924        117.786       0.247092
            927            927        118.137          0.259
            930            930        118.487       0.270915
            933            933        118.838       0.283029
            936            936        119.189       0.296082
            939            939         119.54       0.310048
            942            942        119.891       0.324125
            945            945        120.242       0.338471
            948            948        120.593       0.353199
            951            951        120.943       0.368215
            954            954        121.294       0.383623
            957            957        121.645       0.399861
            960            960        121.996       0.416986
            963            963        122.348       0.434737
            966            966        122.699       0.453133
            969            969         123.05       0.472116
            972            972        123.401       0.491248
            975            975        123.752       0.511161
            978            978        124.103       0.531685
            981            981        124.454       0.553116
            984            984        124.806       0.575286
            987            987        125.157       0.598386
            990            990        125.508       0.621833
            993            993         125.86       0.645954
            996            996        126.211       0.670955
            999            999        126.563       0.696999
           1002           1002        126.914        0.72386
           1005           1005        127.266       0.751651
           1008           1008        127.617       0.779881
           1011           1011        127.969        0.80898
           1014           1014        128.321       0.839196
           1017           1017        128.672       0.870951
           1020           1020        129.024       0.903711
           1023           1023        129.376       0.937225
           1026           1026        129.728       0.971651
           1029           1029         130.08        1.00698
           1032           1032        130.432        1.04347
           1035           1035        130.784        1.08085
           1038           1038        131.136        1.11961
           1041           1041        131.488         1.1594
           1044           1044         131.84        1.20017
           1047           1047        132.192        1.24206
           1050           1050        132.544         1.2857
           1053           1053        132.897        1.33054
           1056           1056        133.249        1.37701
           1059           1059        133.602        1.42455
           1062           1062        133.954        1.47393
           1065           1065        134.307        1.52455
           1068           1068         134.66        1.57621
           1071           1071        135.012        1.62928
           1074           1074        135.365        1.68451
           1077           1077        135.718        1.74159
           1080           1080        136.071            1.8
           1083           1083        136.424        1.85984
           1086           1086        136.777        1.92169
           1089           1089        137.131        1.98522
           1092           1092        137.484        2.04996
           1095           1095        137.837        2.11652
           1098           1098        138.191         2.1848
           1101           1101        138.544        2.25493
           1104           1104        138.898        2.32686
           1107           1107        139.252        2.40115
           1110           1110        139.606        2.47706
           1113           1113         139.96        2.55513
           1116           1116        140.314         2.6348
           1119           1119        140.668        2.71675
           1122           1122        141.022        2.80083
           1125           1125        141.376        2.88647
           1128           1128        141.731        2.97375
           1131           1131        142.085        3.06363
           1134           1134         142.44          3.156
           1137           1137        142.794        3.25004
           1140           1140        143.149        3.34581
           1143           1143        143.504        3.44395
           1146           1146        143.859        3.54383
           1149           1149        144.214        3.64588
           1152           1152        144.569        3.74922
           1155           1155        144.925        3.85441
           1158           1158         145.28        3.96154
           1161           1161        145.635         4.0713
           1164           1164        145.991        4.18269
           1167           1167        146.346        4.29546
           1170           1170        146.702        4.41004
           1173           1173        147.058        4.52613
           1176           1176        147.414        4.64389
           1179           1179         147.77        4.76305
           1182           1182        148.126        4.88342
           1185           1185        148.482         5.0046
           1188           1188        148.838        5.12698
           1191           1191        149.194        5.25027
           1194           1194         149.55        5.37437
           1197           1197        149.906        5.49889
           1200           1200        150.262         5.6241
           1203           1203        150.619        5.74943
           1206           1206        150.975        5.87446
           1209           1209        151.331        5.99937
           1212           1212        151.687        6.12392
           1215           1215        152.043        6.24809
           1218           1218        152.399        6.37154
           1221           1221        152.756         6.4942
           1224           1224        153.112        6.61537
           1227           1227        153.468        6.73477
           1230           1230        153.824        6.85252
           1233           1233        154.179        6.96788
           1236           1236        154.535        7.08061
           1239           1239        154.891        7.19149
           1242           1242        155.246        7.30019
           1245           1245        155.601        7.40455
           1248           1248        155.956        7.50581
           1251           1251        156.311        7.60238
           1254           1254        156.666        7.69606
           1257           1257        157.021        7.78357
           1260           1260        157.375        7.86767
           1263           1263        157.729        7.94644
           1266           1266        158.083        8.02103
           1269           1269        158.437          8.091
           1272           1272         158.79        8.15524
           1275           1275        159.143        8.21322
           1278           1278        159.496        8.26654
           1281           1281        159.849        8.31312
           1284           1284        160.201        8.35443
           1287           1287        160.553        8.38996
           1290           1290        160.905        8.41959
           1293           1293        161.256        8.44249
           1296           1296        161.607        8.45929
           1299           1299        161.958        8.47027
           1302           1302        162.309        8.47466
           1305           1305        162.659        8.47329
           1308           1308        163.009        8.46602
           1311           1311        163.359        8.45475
           1314           1314        163.708        8.43599
           1317           1317        164.058        8.41206
           1320           1320        164.407        8.38225
           1323           1323        164.755         8.3485
           1326           1326        165.104        8.30796
           1329           1329        165.452        8.26427
           1332           1332          165.8        8.21374
           1335           1335        166.148        8.16024
           1338           1338        166.496        8.10248
           1341           1341        166.843        8.03973
           1344           1344         167.19        7.97243
           1347           1347        167.537        7.90355
           1350           1350        167.884        7.82949
           1353           1353        168.231         7.7522
           1356           1356        168.577        7.67226
           1359           1359        168.924        7.58921
           1362           1362         169.27        7.50347
           1365           1365        169.616        7.41543
           1368           1368        169.962        7.32535
           1371           1371        170.308        7.23291
           1374           1374        170.654        7.13873
           1377           1377            171        7.04297
           1380           1380        171.346         6.9459
           1383           1383        171.691         6.8472
           1386           1386        172.037        6.74737
           1389           1389        172.382        6.64642
           1392           1392        172.728        6.54474
           1395           1395        173.073        6.44234
           1398           1398        173.419        6.33937
           1401           1401        173.764        6.23568
           1404           1404         174.11        6.13171
           1407           1407        174.455        6.02746
           1410           1410          174.8        5.92303
           1413           1413        175.146        5.81868
           1416           1416        175.491        5.71481
           1419           1419        175.836        5.61122
           1422           1422        176.182        5.50791
           1425           1425        176.527        5.40503
           1428           1428        176.873        5.30216
           1431           1431        177.218         5.1997
           1434           1434        177.563        5.09802
           1437           1437        177.909        4.99717
           1440           1440        178.254        4.89751
           1443           1443          178.6        4.79872
           1446           1446        178.946         4.7007
           1449           1449        179.291        4.60309
           1452           1452        179.637        4.50636
           1455           1455        179.983        4.41061
           1458           1458        180.328        4.31566
           1461           1461        180.674        4.22171
           1464           1464         181.02        4.12911
           1467           1467        181.366        4.03773
           1470           1470        181.712        3.94733
           1473           1473        182.058         3.8577
           1476           1476        182.404        3.76933
           1479           1479         182.75        3.68245
           1482           1482        183.096        3.59696
           1485           1485        183.443        3.51257
           1488           1488        183.789        3.42959
           1491           1491        184.135        3.34773
           1494           1494        184.482        3.26727
           1497           1497        184.828         3.1881
           1500           1500        185.175        3.11047
           1503           1503        185.521        3.03371
           1506           1506        185.868        2.95824
           1509           1509        186.214        2.88445
           1512           1512        186.561        2.81173
           1515           1515        186.908        2.74004
           1518           1518        187.255        2.66967
           1521           1521        187.602        2.60128
           1524           1524        187.949        2.53441
           1527           1527        188.296         2.4687
           1530           1530        188.643        2.40419
           1533           1533         188.99        2.34148
           1536           1536        189.338        2.27982
           1539           1539        189.685        2.21903
           1542           1542        190.032         2.1591
           1545           1545         190.38        2.10049
           1548           1548        190.727        2.04315
           1551           1551        191.075        1.98681
           1554           1554        191.422        1.93182
           1557           1557         191.77        1.87823
           1560           1560        192.118        1.82581
           1563           1563        192.465        1.77413
           1566           1566        192.813        1.72359
           1569           1569        193.161        1.67423
           1572           1572        193.509        1.62574
           1575           1575        193.857        1.57802
           1578           1578        194.205         1.5318
           1581           1581        194.553        1.48691
           1584           1584        194.901        1.44316
           1587           1587        195.249        1.40045
           1590           1590        195.597        1.35884
           1593           1593        195.945        1.31779
           1596           1596        196.294        1.27777
           1599           1599        196.642        1.23856
           1602           1602         196.99         1.2003
           1605           1605        197.339        1.16296
           1608           1608        197.687        1.12675
           1611           1611        198.035        1.09126
           1614           1614        198.384        1.05676
           1617           1617        198.732        1.02308
           1620           1620        199.081       0.990298
           1623           1623         199.43       0.958508
           1626           1626        199.778       0.927301
           1629           1629        200.127        0.89681
           1632           1632        200.476       0.867157
           1635           1635        200.825       0.838305
           1638           1638        201.173       0.809882
           1641           1641        201.522       0.782004
           1644           1644        201.871        0.75462
           1647           1647         202.22        0.72819
           1650           1650        202.569        0.70273
           1653           1653        202.918       0.678038
           1656           1656        203.267       0.653671
           1659           1659        203.616       0.629743
           1662           1662        203.965       0.606456
           1665           1665        204.314       0.583968
           1668           1668        204.663       0.562023
           1671           1671        205.012       0.541005
           1674           1674        205.361       0.520499
           1677           1677         205.71       0.500227
           1680           1680        206.059       0.480756
           1683           1683        206.409       0.461909
           1686           1686        206.758       0.443039
           1689           1689        207.107       0.424596
           1692           1692        207.456       0.407052
           1695           1695        207.806       0.390235
           1698           1698        208.155       0.373724
           1701           1701        208.504        0.35726
           1704           1704        208.854       0.341261
           1707           1707        209.203       0.325847
           1710           1710        209.552       0.310526
           1713           1713        209.902       0.295666
           1716           1716        210.251       0.281632
           1719           1719          210.6       0.268218
           1722           1722         210.95       0.255104
           1725           1725        211.299       0.242328
           1728           1728        211.649       0.230146
           1731           1731        211.998       0.218389
           1734           1734        212.348       0.206838
           1737           1737        212.697         0.1955
           1740           1740        213.047       0.184501
           1743           1743        213.397       0.174052
           1746           1746        213.746       0.164098
           1749           1749        214.096       0.154492
           1752           1752        214.445       0.145254
           1755           1755        214.795       0.136211
           1758           1758        215.145       0.127379
           1761           1761        215.494        0.11871
           1764           1764        215.844       0.110264
           1767           1767        216.194       0.102271
           1770           1770        216.543      0.0946049
           1773           1773        216.893      0.0870517
           1776           1776        217.243      0.0799689
           1779           1779        217.592      0.0734349
           1782           1782        217.942      0.0677429
           1785           1785        218.292      0.0626044
           1788           1788        218.642      0.0572229
           1791           1791        218.991      0.0518052
           1794           1794        219.341      0.0464802
           1797           1797        219.691      0.0416291
           1800           1800        220.041      0.0372062
           1803           1803        220.391      0.0332409
           1806           1806         220.74      0.0293055
           1809           1809         221.09      0.0255445
           1812           1812         221.44      0.0218003
           1815           1815         221.79      0.0180798
           1818           1818         222.14      0.0148154
           1821           1821         222.49      0.0122962
           1824           1824         222.84      0.0101243
           1827           1827        223.189     0.00814068
           1830           1830        223.539       0.006302
           1833           1833        223.889     0.00447989
           1836           1836        224.239     0.00295609
           1839           1839        224.589     0.00161088
           1842           1842        224.939    0.000613987
           1845           1845        225.289   2.68817e-005
           1848           1848        225.639   -0.000166476
           1851           1851        225.989  -9.19104e-005
           1854           1854        226.339   4.39286e-005
           1857           1857        226.689   2.49743e-005
           1860           1860        227.039              0
           1863           1863        227.389              0
           1866           1866        227.739              0
           1869           1869        228.089              0
           1872           1872        228.439              0
           1875           1875        228.789              0
           1878           1878        229.139              0
           1881           1881        229.489              0
           1884           1884        229.839              0
           1887           1887        230.189              0
           1890           1890        230.539              0
           1893           1893        230.889              0
           1896           1896        231.239              0
           1899           1899        231.589              0
           1902           1902        231.939              0
           1905           1905        232.289              0
           1908           1908        232.639              0
           1911           1911        232.989              0
           1914           1914        233.339              0
           1917           1917         233.69              0
           1920           1920         234.04              0
           1923           1923         234.39              0
           1926           1926         234.74              0
           1929           1929         235.09              0
           1932           1932         235.44              0
           1935           1935         235.79              0
           1938           1938         236.14              0
           1941           1941         236.49              0
           1944           1944         236.84              0
           1947           1947         237.19              0
           1950           1950         237.54              0
           1953           1953         237.89              0
           1956           1956         238.24              0
           1959           1959         238.59              0
           1962           1962         238.94              0
           1965           1965         239.29              0
           1968           1968         239.64              0
           1971           1971         239.99              0
           1974           1974         240.34              0
           1977           1977        240.689              0
           1980           1980        241.039              0
           1983           1983        241.389              0
           1986           1986        241.739              0
           1989           1989        242.089              0
           1992           1992        242.438              0
           1995           1995        242.788              0
           1998           1998        243.138              0
           2001           2001        243.487              0
           2004           2004        243.837              0
           2007           2007        244.186              0
           2010           2010        244.535              0
           2013           2013        244.885              0
           2016           2016        245.234              0
           2019           2019        245.583              0
           2022           2022        245.932              0
           2025           2025        246.281              0
           2028           2028         246.63              0
           2031           2031        246.979              0
           2034           2034        247.328              0
           2037           2037        247.677              0
           2040           2040        248.025              0
           2043           2043        248.374              0
           2046           2046        248.722              0
           2049           2049         249.07              0
           2052           2052        249.419              0
           2055           2055        249.767              0
           2058           2058        250.115              0
           2061           2061        250.463              0
           2064           2064        250.811              0
           2067           2067        251.159              0
           2070           2070        251.506              0
           2073           2073        251.854              0
           2076           2076        252.201              0
           2079           2079        252.549              0
           2082           2082        252.896              0
           2085           2085        253.243              0
           2088           2088         253.59              0
           2091           2091        253.936              0
           2094           2094        254.283              0
           2097           2097         254.63              0
           2100           2100        254.977              0
           2103           2103        255.325              0
           2106           2106        255.672              0
           2109           2109         256.02              0
           2112           2112        256.369              0
           2115           2115        256.717              0
           2118           2118        257.066              0
           2121           2121        257.415              0
           2124           2124        257.764              0
           2127           2127        258.114              0
           2130           2130        258.463              0
           2133           2133        258.813              0
           2136           2136        259.163              0
           2139           2139        259.513              0
           2142           2142        259.863              0
           2145           2145        260.214              0
           2148           2148        260.564              0
           2151           2151        260.915              0
           2154           2154        261.265              0
           2157           2157        261.616              0
           2160           2160        261.967              0
           2163           2163        262.317              0
           2166           2166        262.668              0
           2169           2169        263.019              0
           2172           2172         263.37              0
           2175           2175        263.721              0
           2178           2178        264.072              0
           2181           2181        264.423              0
           2184           2184        264.774              0
           2187           2187        265.125              0
           2190           2190        265.476              0
           2193           2193        265.827              0
           2196           2196        266.178              0
           2199           2199        266.529              0
           2202           2202         266.88              0
           2205           2205        267.231              0
           2208           2208        267.582              0
           2211           2211        267.934              0
           2214           2214        268.285              0
           2217           2217        268.636              0
           2220           2220        268.987              0
           2223           2223        269.339              0
           2226           2226         269.69              0
           2229           2229        270.041              0
           2232           2232        270.393              0
           2235           2235        270.744              0
           2238           2238        271.096              0
           2241           2241        271.447              0
           2244           2244        271.799              0
           2247           2247         272.15              0
           2250           2250        272.502              0
           2253           2253        272.853              0
           2256           2256        273.205              0
           2259           2259        273.557              0
           2262           2262        273.908              0
           2265           2265         274.26              0
           2268           2268        274.612              0
           2271           2271        274.964              0
           2274           2274        275.315              0
           2277           2277        275.667              0
           2280           2280        276.019              0
           2283           2283        276.371              0
           2286           2286        276.723              0
           2289           2289        277.075              0
           2292           2292        277.426              0
           2295           2295        277.778              0
           2298           2298         278.13              0
           2301           2301        278.482              0
           2304           2304        278.834              0
           2307           2307        279.186              0
           2310           2310        279.538              0
           2313           2313         279.89              0
           2316           2316        280.242              0
           2319           2319        280.593              0
           2322           2322        280.945              0
           2325           2325        281.297              0
           2328           2328        281.649              0
           2331           2331        282.001              0
           2334           2334        282.352              0
           2337           2337        282.704              0
           2340           2340        283.056              0
           2343           2343        283.407              0
           2346           2346        283.759              0
           2349           2349        284.111              0
           2352           2352        284.462              0
           2355           2355        284.814              0
           2358           2358        285.165              0
           2361           2361        285.517              0
           2364           2364        285.868              0
           2367           2367        286.219              0
           2370           2370         286.57              0
           2373           2373        286.922              0
           2376           2376        287.273              0
           2379           2379        287.623              0
           2382           2382        287.971              0
           2385           2385        288.322              0
           2388           2388        288.674              0
           2391           2391        289.023              0
           2394           2394        289.372              0
           2397           2397        289.722              0
           2400           2400         290.07              0
           2403           2403        290.421              0
           2406           2406        290.768              0
           2409           2409        291.113              0
           2412           2412        291.461              0
           2415           2415        291.811              0
           2418           2418         292.16              0
           2421           2421        292.508              0
           2424           2424         292.86              0
           2427           2427        293.212              0
           2430           2430        293.564              0
           2433           2433        293.913              0
           2436           2436        294.263              0
           2439           2439        294.615              0
           2442           2442        294.966              0
           2445           2445        295.316              0
           2448           2448        295.665              0
           2451           2451        296.017              0
           2454           2454        296.369              0
           2457           2457        296.721              0
           2460           2460        297.072              0
           2463           2463        297.423              0
           2466           2466        297.774              0
           2469           2469        298.125              0
           2472           2472        298.475              0
           2475           2475        298.825              0
           2478           2478        299.174              0
           2481           2481        299.523              0
           2484           2484        299.875              0
           2487           2487        300.225              0
           2490           2490        300.574              0
           2493           2493        300.925              0
           2496           2496        301.277              0
           2499           2499        301.629              0
           2502           2502         301.98              0
           2505           2505        302.332              0
           2508           2508        302.683              0
           2511           2511        303.035              0
           2514           2514        303.386              0
           2517           2517        303.735              0
           2520           2520        304.086              0
           2523           2523        304.437              0
           2526           2526        304.788              0
           2529           2529        305.137              0
           2532           2532        305.487              0
           2535           2535        305.838              0
           2538           2538         306.19              0
           2541           2541        306.541              0
           2544           2544        306.892              0
           2547           2547        307.244              0
           2550           2550        307.595              0
           2553           2553        307.946              0
           2556           2556        308.297              0
           2559           2559        308.648              0
           2562           2562        308.999              0
           2565           2565        309.349              0
           2568           2568          309.7              0
           2571           2571         310.05              0
           2574           2574        310.401              0
           2577           2577        310.752              0
           2580           2580        311.102              0
           2583           2583        311.453              0
           2586           2586        311.804              0
           2589           2589        312.154              0
           2592           2592        312.505              0
           2595           2595        312.855              0
           2598           2598        313.206              0
           2601           2601        313.557              0
           2604           2604        313.907              0
           2607           2607        314.257              0
           2610           2610        314.607              0
           2613           2613        314.958              0
           2616           2616        315.308              0
           2619           2619        315.659              0
           2622           2622        316.009              0
           2625           2625         316.36              0
           2628           2628         316.71              0
           2631           2631        317.061              0
           2634           2634        317.411              0
           2637           2637        317.761              0
           2640           2640        318.112              0
           2643           2643        318.461              0
           2646           2646        318.811              0
           2649           2649        319.162              0
           2652           2652        319.512              0
           2655           2655        319.863              0
           2658           2658        320.213              0
           2661           2661        320.564              0
           2664           2664        320.914              0
           2667           2667        321.264              0
           2670           2670        321.614              0
           2673           2673        321.965              0
           2676           2676        322.315              0
           2679           2679        322.665              0
           2682           2682        323.016              0
           2685           2685        323.366              0
           2688           2688        323.716              0
           2691           2691        324.067              0
           2694           2694        324.417              0
           2697           2697        324.767              0
           2700           2700        325.117              0
           2703           2703        325.468              0
           2706           2706        325.818              0
           2709           2709        326.168              0
           2712           2712        326.518              0
           2715           2715        326.868              0
           2718           2718        327.218              0
           2721           2721        327.569              0
           2724           2724        327.919              0
           2727           2727        328.269              0
           2730           2730        328.619              0
           2733           2733        328.969              0
           2736           2736         329.32              0
           2739           2739         329.67              0
           2742           2742         330.02              0
           2745           2745         330.37              0
           2748           2748         330.72              0
           2751           2751        331.071              0
           2754           2754        331.421              0
           2757           2757        331.771              0
           2760           2760        332.121              0
           2763           2763        332.471              0
           2766           2766        332.821              0
           2769           2769        333.171              0
           2772           2772        333.521              0
           2775           2775        333.871              0
           2778           2778        334.222              0
           2781           2781        334.572              0
           2784           2784        334.922              0
           2787           2787        335.272              0
           2790           2790        335.622              0
           2793           2793        335.972              0
           2796           2796        336.322              0
           2799           2799        336.671              0
           2802           2802         337.02              0
           2805           2805        337.369              0
           2808           2808        337.719              0
           2811           2811        338.068              0
           2814           2814        338.418              0
           2817           2817        338.765              0
           2820           2820        339.115              0
           2823           2823        339.465              0
           2826           2826        339.813              0
           2829           2829        340.163              0
           2832           2832        340.513              0
           2835           2835        340.863              0
           2838           2838        341.215              0
           2841           2841        341.566              0
           2844           2844        341.917              0
           2847           2847        342.267              0
           2850           2850        342.613              0
           2853           2853        342.962              0
           2856           2856        343.311              0
           2859           2859         343.66              0
           2862           2862        344.009              0
           2865           2865         344.36              0
           2868           2868         344.71              0
           2871           2871         345.06              0
           2874           2874         345.41              0
           2877           2877        345.759              0
           2880           2880        346.108              0
           2883           2883        346.457              0
           2886           2886        346.807              0
           2889           2889        347.155              0
           2892           2892        347.505              0
           2895           2895        347.855              0
           2898           2898        348.204              0
           2901           2901        348.553              0
           2904           2904        348.902              0
           2907           2907        349.251              0
           2910           2910        349.599              0
           2913           2913        349.947              0




________________________________________________________________________________
Not signed                                                        STARe SW 13.00